Copper (Cu)	Cu1(cr)
T(K)	Cp	S	-[G-H(Tr)]/T	H-H(Tr)	delta-f H	delta-f G	log Kf
0	0.	0.	INFINITE	-5.007	0.	0.	0.
100	16.010	10.034	53.414	-4.338	0.	0.	0.
200	22.631	23.730	35.354	-2.325	0.	0.	0.
250	23.782	28.915	33.563	-1.162	0.	0.	0.
298.15	24.442	33.164	33.164	0.	0.	0.	0.
300	24.462	33.315	33.164	0.045	0.	0.	0.
350	24.975	37.127	33.464	1.282	0.	0.	0.
400	25.318	40.484	34.136	2.539	0.	0.	0.
450	25.686	43.489	35.011	3.815	0.	0.	0.
500	25.912	46.206	35.997	5.105	0.	0.	0.
600	26.481	50.982	38.107	7.725	0.	0.	0.
700	26.996	55.103	40.247	10.399	0.	0.	0.
800	27.494	58.739	42.336	13.123	0.	0.	0.
900	28.049	62.009	44.343	15.899	0.	0.	0.
1000	28.662	64.994	46.261	18.733	0.	0.	0.
1100	29.479	67.763	48.091	21.638	0.	0.	0.
1200	30.519	70.368	49.840	24.633	0.	0.	0.
1300	32.143	72.871	51.516	27.762	0.	0.	0.
1358.000	33.353	74.300	52.459	29.660	CRYSTAL <--> LIQUID
1400	34.258	75.330	53.129	31.081	13.097 0.406  0.015
1500	36.425	77.767	54.691	34.615	-12.847	1.363	-0.047
1600	38.593	80.187	56.209	38.366	-12.381	2.296	-0.075
1700	40.760	82.592	57.690	42.333	-11.697	3.194	-0.098
1800	42.928	84.983	59.140	46.518	-10.797	4.045	-0.117
1900	45.095	87.362	60.563	50.919	-9.681	4.840	-0.133
2000	47.263	89.730	61.962	55.537	-8.347	5.570	-0.145
