Titanium, Alpha (Ti)	Ti1(cr)
T(K)	Cp	S	-[G-H(Tr)]/T	H-H(Tr)	delta-f H	delta-f G	log Kf
0	0.	0.	INFINITE	-4.830	0.	0.	0.
100	14.334	8.261	50.955	-4.269	0.	0.	0.
200	22.367	21.227	32.989	-2.352	0.	0.	0.
250	24.074	26.414	31.169	-1.189	0.	0.	0.
298.15	25.238	30.759	30.759	0.	0.	0.	0.
300	25.276	30.915	30.760	0.047	0.	0.	0.
350	26.169	34.882	31.071	1.334	0.	0.	0.
400	26.862	38.423	31.772	2.660	0.	0.	0.
450	27.418	41.620	32.692	4.018	0.	0.	0.
500	27.877	44.534	33.733	5.401	0.	0.	0.
600	28.596	49.683	35.973	8.226	0.	0.	0.
700	29.135	54.134	38.257	11.114	0.	0.	0.
800	29.472	58.039	40.490	14.039	0.	0.	0.
900	30.454	61.561	42.639	17.030	0.	0.	0.
1000	32.074	64.848	44.697	20.151	0.	0.	0.
1100	34.334	68.006	46.673	23.466	0.	0.	0.
1166.000	36.175	70.058	47.938	25.791	ALPHA <--> BETA
1200	37.233	71.113	48.580	27.039	3.922 0.118  0.005
1300	40.771	74.228	50.433	30.934	-3.007	0.420	-0.017
1400	44.948	77.399	52.245	35.214	-1.786	0.640	-0.024
1500	49.764	80.660	54.030	39.945	-0.205	0.760	-0.026
1600	55.220	84.043	55.800	45.189	1.784	0.762	-0.025
1700	61.314	87.570	57.564	51.010	4.232	0.625	-0.019
